  Energy   numu   numubar   nue    nuebar
  0.0250   0.683   0.434   0.363   0.427
  0.0750   0.486   0.173   0.258   0.412
  0.1250   0.313   0.129   0.209   0.993
  0.1750   0.253   0.096   0.173   0.965
  0.2250   0.211   0.084   0.156   0.656
  0.2750   0.173   0.084   0.133   0.451
  0.3250   0.130   0.081   0.115   0.354
  0.3750   0.095   0.078   0.099   0.261
  0.4250   0.077   0.078   0.086   0.200
  0.4750   0.069   0.076   0.080   0.190
  0.5250   0.066   0.077   0.073   0.187
  0.5750   0.061   0.076   0.070   0.185
  0.6250   0.058   0.074   0.069   0.188
  0.6750   0.056   0.073   0.068   0.195
  0.7250   0.054   0.073   0.068   0.195
  0.7750   0.053   0.074   0.068   0.189
  0.8250   0.053   0.079   0.069   0.208
  0.8750   0.054   0.081   0.070   0.212
  0.9250   0.054   0.082   0.069   0.216
  0.9750   0.055   0.085   0.071   0.207
  1.0250   0.055   0.089   0.073   0.217
  1.0750   0.058   0.089   0.075   0.242
  1.1250   0.061   0.085   0.075   0.239
  1.1750   0.062   0.083   0.075   0.247
  1.2250   0.063   0.087   0.077   0.243
  1.2750   0.065   0.094   0.081   0.260
  1.3250   0.067   0.092   0.079   0.269
  1.3750   0.071   0.094   0.081   0.273
  1.4250   0.076   0.103   0.083   0.252
  1.4750   0.083   0.106   0.086   0.274
  1.5250   0.091   0.112   0.086   0.280
  1.5750   0.098   0.107   0.088   0.245
  1.6250   0.105   0.099   0.088   0.239
  1.6750   0.112   0.101   0.090   0.290
  1.7250   0.121   0.104   0.089   0.289
  1.7750   0.131   0.121   0.091   0.238
  1.8250   0.143   0.121   0.092   0.307
  1.8750   0.155   0.130   0.096   0.311
  1.9250   0.164   0.132   0.098   0.258
  1.9750   0.173   0.125   0.090   0.303
  2.0250   0.182   0.125   0.100   0.323
  2.0750   0.189   0.116   0.100   0.315
  2.1250   0.195   0.133   0.095   0.328
  2.1750   0.200   0.147   0.103   0.307
  2.2250   0.206   0.142   0.103   0.344
  2.2750   0.197   0.196   0.106   0.315
  2.3250   0.192   0.236   0.106   0.353
  2.3750   0.187   0.254   0.104   0.367
  2.4250   0.176   0.294   0.106   0.357
  2.4750   0.166   0.310   0.090   0.359
  2.5250   0.159   0.321   0.101   0.344
  2.5750   0.152   0.305   0.114   0.378
  2.6250   0.148   0.301   0.113   0.385
  2.6750   0.143   0.300   0.110   0.383
  2.7250   0.142   0.288   0.109   0.372
  2.7750   0.140   0.254   0.107   0.393
  2.8250   0.139   0.230   0.109   0.389
  2.8750   0.141   0.352   0.117   0.411
  2.9250   0.139   0.282   0.111   0.410
  2.9750   0.139   0.306   0.107   0.388
  3.0250   0.139   0.360   0.114   0.328
  3.0750   0.138   0.412   0.117   0.410
  3.1250   0.136   0.546   0.115   0.416
  3.1750   0.133   0.371   0.104   0.400
  3.2250   0.134   0.402   0.133   0.416
  3.2750   0.133   0.200   0.106   0.400
  3.3250   0.131   0.349   0.108   0.397
  3.3750   0.131   0.321   0.119   0.459
  3.4250   0.129   0.436   0.122   0.436
  3.4750   0.126   0.287   0.102   0.431
  3.5250   0.127   0.239   0.119   0.453
  3.5750   0.124   0.246   0.153   0.435
  3.6250   0.124   0.465   0.117   0.467
  3.6750   0.123   0.272   0.115   0.129
  3.7250   0.125   0.210   0.124   0.461
  3.7750   0.122   0.535   0.131   0.427
  3.8250   0.121   0.143   0.110   0.467
  3.8750   0.122   0.347   0.109   0.433
  3.9250   0.121   0.232   0.120   0.437
  3.9750   0.125   0.359   0.123   0.423
  4.0250   0.118   0.340   0.135   0.488
  4.0750   0.119   0.325   0.108   0.454
  4.1250   0.118   0.410   0.105   0.413
  4.1750   0.119   0.667   0.133   0.660
  4.2250   0.118   0.324   0.595   0.307
  4.2750   0.117   0.365   0.135   0.545
  4.3250   0.115   0.355   0.120   0.467
  4.3750   0.116   0.302   0.132   0.546
  4.4250   0.118   0.213   0.136   0.492
  4.4750   0.115   0.444   0.148   0.329
  4.5250   0.120   0.494   0.132   0.491
  4.5750   0.116   0.271   0.127   0.549
  4.6250   0.117   0.337   0.114   0.552
  4.6750   0.114   0.357   0.164   0.592
  4.7250   0.130   0.279   0.145   0.811
  4.7750   0.116   0.091   0.133   0.372
  4.8250   0.116   0.478   0.107   0.583
  4.8750   0.118   0.227   0.297   0.472
  4.9250   0.115   0.619   0.194   0.637
  4.9750   0.117   0.194   0.120   0.703
